frequency,raw,error,smoothed,error_smoothed,equalization,parametric_eq,equalized_raw,equalized_smoothed,target
20.00,-0.25,-3.38,-0.25,-3.38,3.39,2.89,3.14,3.14,3.13
20.20,-0.19,-3.32,-0.20,-3.33,3.33,2.83,3.14,3.14,3.13
20.40,-0.15,-3.28,-0.14,-3.28,3.28,2.77,3.13,3.13,3.13
20.61,-0.09,-3.22,-0.09,-3.22,3.22,2.71,3.13,3.13,3.13
20.81,-0.03,-3.16,-0.03,-3.17,3.16,2.64,3.13,3.13,3.13
21.02,0.03,-3.10,0.03,-3.10,3.09,2.58,3.12,3.12,3.13
21.23,0.09,-3.02,0.09,-3.03,3.02,2.51,3.11,3.11,3.11
21.44,0.15,-2.95,0.15,-2.95,2.95,2.44,3.10,3.10,3.10
21.66,0.21,-2.87,0.21,-2.87,2.87,2.37,3.08,3.09,3.08
21.87,0.27,-2.79,0.27,-2.79,2.79,2.30,3.07,3.07,3.06
22.09,0.34,-2.71,0.34,-2.71,2.71,2.22,3.05,3.05,3.05
22.31,0.40,-2.62,0.40,-2.63,2.63,2.15,3.03,3.03,3.02
22.54,0.46,-2.54,0.46,-2.54,2.54,2.08,3.00,3.00,3.00
22.76,0.53,-2.45,0.53,-2.45,2.45,2.00,2.98,2.98,2.98
22.99,0.59,-2.36,0.59,-2.36,2.36,1.93,2.95,2.95,2.95
23.22,0.65,-2.27,0.65,-2.27,2.28,1.85,2.93,2.93,2.92
23.45,0.72,-2.17,0.72,-2.18,2.19,1.78,2.91,2.90,2.89
23.69,0.78,-2.10,0.78,-2.10,2.10,1.70,2.88,2.88,2.88
23.92,0.85,-2.01,0.85,-2.01,2.02,1.63,2.87,2.87,2.86
24.16,0.92,-1.93,0.92,-1.93,1.93,1.55,2.85,2.85,2.85
24.40,0.98,-1.85,0.98,-1.85,1.84,1.48,2.83,2.83,2.83
24.65,1.05,-1.76,1.05,-1.76,1.76,1.41,2.81,2.81,2.81
24.89,1.12,-1.67,1.12,-1.67,1.68,1.33,2.80,2.80,2.79
25.14,1.19,-1.59,1.19,-1.59,1.59,1.26,2.78,2.78,2.78
25.39,1.26,-1.50,1.26,-1.51,1.51,1.19,2.77,2.77,2.76
25.65,1.32,-1.43,1.32,-1.42,1.42,1.12,2.74,2.75,2.75
25.91,1.39,-1.34,1.39,-1.34,1.34,1.04,2.73,2.73,2.72
26.16,1.46,-1.25,1.46,-1.26,1.26,0.97,2.72,2.71,2.71
26.43,1.52,-1.18,1.52,-1.17,1.17,0.90,2.69,2.70,2.70
26.69,1.59,-1.08,1.59,-1.09,1.09,0.83,2.68,2.68,2.67
26.96,1.66,-1.00,1.66,-1.01,1.01,0.76,2.67,2.67,2.66
27.23,1.73,-0.92,1.73,-0.92,0.93,0.69,2.66,2.65,2.65
27.50,1.79,-0.85,1.79,-0.85,0.84,0.62,2.63,2.64,2.64
27.77,1.86,-0.76,1.86,-0.77,0.76,0.55,2.62,2.62,2.62
28.05,1.93,-0.68,1.93,-0.68,0.68,0.48,2.61,2.61,2.61
28.33,1.99,-0.60,1.99,-0.60,0.60,0.41,2.59,2.60,2.59
28.62,2.06,-0.52,2.06,-0.52,0.52,0.34,2.58,2.58,2.58
28.90,2.12,-0.44,2.12,-0.44,0.45,0.27,2.57,2.57,2.56
29.19,2.18,-0.36,2.18,-0.37,0.37,0.20,2.55,2.55,2.54
29.48,2.25,-0.29,2.25,-0.29,0.29,0.14,2.54,2.54,2.54
29.78,2.31,-0.22,2.31,-0.22,0.22,0.07,2.53,2.53,2.53
30.08,2.38,-0.14,2.37,-0.15,0.14,-0.00,2.52,2.52,2.52
30.38,2.43,-0.07,2.44,-0.07,0.07,-0.07,2.50,2.50,2.50
30.68,2.50,0.01,2.50,0.01,-0.01,-0.14,2.49,2.49,2.49
30.99,2.56,0.10,2.56,0.09,-0.08,-0.21,2.48,2.48,2.46
31.30,2.61,0.16,2.61,0.16,-0.15,-0.27,2.46,2.46,2.45
31.61,2.66,0.22,2.66,0.22,-0.22,-0.34,2.44,2.44,2.44
31.93,2.71,0.29,2.71,0.29,-0.29,-0.41,2.41,2.41,2.42
32.24,2.76,0.37,2.76,0.36,-0.36,-0.47,2.40,2.40,2.39
32.57,2.81,0.44,2.81,0.44,-0.43,-0.54,2.38,2.38,2.37
32.89,2.86,0.50,2.86,0.50,-0.50,-0.60,2.36,2.36,2.36
33.22,2.91,0.58,2.91,0.57,-0.57,-0.67,2.34,2.33,2.33
33.55,2.95,0.63,2.95,0.64,-0.64,-0.73,2.31,2.31,2.32
33.89,3.00,0.71,3.00,0.70,-0.71,-0.79,2.29,2.29,2.29
34.23,3.04,0.77,3.04,0.77,-0.77,-0.85,2.27,2.27,2.27
34.57,3.09,0.84,3.09,0.84,-0.83,-0.91,2.26,2.26,2.25
34.92,3.13,0.90,3.13,0.89,-0.88,-0.97,2.25,2.25,2.23
35.27,3.17,0.93,3.17,0.94,-0.93,-1.02,2.24,2.25,2.23
35.62,3.21,0.97,3.21,0.97,-0.97,-1.07,2.24,2.24,2.24
35.97,3.25,1.00,3.25,1.00,-1.00,-1.13,2.25,2.25,2.25
36.33,3.29,1.03,3.29,1.03,-1.03,-1.17,2.26,2.25,2.26
36.70,3.32,1.05,3.32,1.06,-1.06,-1.22,2.26,2.26,2.27
37.06,3.36,1.09,3.36,1.09,-1.09,-1.26,2.27,2.27,2.27
37.43,3.40,1.12,3.40,1.12,-1.12,-1.30,2.28,2.28,2.28
37.81,3.43,1.14,3.43,1.14,-1.15,-1.33,2.28,2.29,2.29
38.19,3.47,1.18,3.46,1.17,-1.17,-1.37,2.30,2.29,2.29
38.57,3.49,1.18,3.50,1.20,-1.20,-1.39,2.29,2.30,2.31
38.95,3.53,1.23,3.53,1.23,-1.22,-1.42,2.31,2.31,2.30
39.34,3.56,1.25,3.56,1.25,-1.24,-1.44,2.32,2.31,2.31
39.74,3.59,1.27,3.59,1.27,-1.27,-1.46,2.32,2.32,2.32
40.14,3.61,1.27,3.61,1.28,-1.28,-1.47,2.33,2.33,2.34
40.54,3.64,1.29,3.64,1.30,-1.30,-1.48,2.34,2.34,2.35
40.94,3.67,1.32,3.67,1.31,-1.31,-1.49,2.36,2.35,2.35
41.35,3.69,1.34,3.69,1.33,-1.32,-1.49,2.37,2.37,2.35
41.76,3.71,1.33,3.71,1.34,-1.34,-1.49,2.38,2.38,2.38
42.18,3.73,1.34,3.73,1.34,-1.35,-1.49,2.38,2.38,2.39
42.60,3.75,1.36,3.75,1.35,-1.35,-1.49,2.40,2.39,2.39
43.03,3.76,1.35,3.76,1.36,-1.36,-1.48,2.40,2.40,2.41
43.46,3.78,1.37,3.78,1.37,-1.37,-1.47,2.41,2.41,2.41
43.90,3.80,1.38,3.80,1.38,-1.38,-1.45,2.42,2.42,2.42
44.33,3.82,1.39,3.82,1.39,-1.39,-1.44,2.43,2.43,2.43
44.78,3.82,1.39,3.83,1.40,-1.39,-1.42,2.43,2.43,2.43
45.23,3.84,1.41,3.84,1.40,-1.40,-1.41,2.44,2.44,2.43
45.68,3.84,1.40,3.85,1.40,-1.40,-1.39,2.44,2.45,2.44
46.13,3.86,1.40,3.86,1.40,-1.40,-1.37,2.46,2.46,2.46
46.60,3.87,1.39,3.87,1.40,-1.39,-1.35,2.48,2.47,2.48
47.06,3.87,1.39,3.87,1.39,-1.39,-1.33,2.48,2.48,2.48
47.53,3.88,1.39,3.88,1.38,-1.39,-1.31,2.49,2.49,2.49
48.01,3.88,1.37,3.88,1.38,-1.38,-1.29,2.50,2.50,2.51
48.49,3.88,1.37,3.88,1.37,-1.38,-1.26,2.50,2.50,2.51
48.97,3.88,1.38,3.88,1.37,-1.37,-1.24,2.51,2.50,2.50
49.46,3.87,1.37,3.87,1.37,-1.37,-1.22,2.50,2.51,2.50
49.96,3.87,1.37,3.87,1.36,-1.36,-1.20,2.51,2.51,2.50
50.46,3.87,1.35,3.87,1.36,-1.36,-1.18,2.51,2.51,2.52
50.96,3.87,1.35,3.87,1.35,-1.35,-1.17,2.52,2.52,2.52
51.47,3.86,1.35,3.86,1.34,-1.34,-1.15,2.52,2.52,2.51
51.99,3.85,1.33,3.85,1.33,-1.33,-1.13,2.52,2.52,2.52
52.51,3.84,1.32,3.84,1.32,-1.32,-1.12,2.52,2.52,2.52
53.03,3.83,1.30,3.83,1.31,-1.31,-1.10,2.52,2.52,2.53
53.56,3.82,1.30,3.82,1.30,-1.30,-1.09,2.52,2.53,2.52
54.10,3.82,1.29,3.81,1.29,-1.28,-1.07,2.54,2.53,2.53
54.64,3.79,1.27,3.80,1.27,-1.27,-1.06,2.52,2.53,2.52
55.18,3.78,1.25,3.78,1.25,-1.25,-1.05,2.53,2.52,2.53
55.74,3.76,1.24,3.76,1.23,-1.24,-1.03,2.52,2.52,2.52
56.29,3.74,1.21,3.74,1.22,-1.22,-1.02,2.52,2.52,2.53
56.86,3.72,1.20,3.72,1.20,-1.20,-1.01,2.52,2.52,2.52
57.42,3.71,1.19,3.70,1.18,-1.18,-0.99,2.53,2.53,2.52
58.00,3.68,1.15,3.68,1.16,-1.15,-0.98,2.53,2.53,2.53
58.58,3.65,1.13,3.66,1.13,-1.12,-0.96,2.53,2.53,2.52
59.16,3.63,1.10,3.63,1.10,-1.10,-0.94,2.53,2.53,2.53
59.76,3.60,1.07,3.60,1.07,-1.07,-0.92,2.53,2.53,2.53
60.35,3.57,1.04,3.57,1.04,-1.04,-0.90,2.53,2.52,2.53
60.96,3.53,1.00,3.53,1.01,-1.02,-0.88,2.51,2.52,2.53
61.57,3.50,0.98,3.50,0.98,-0.99,-0.85,2.51,2.51,2.52
62.18,3.47,0.96,3.47,0.96,-0.96,-0.82,2.51,2.51,2.51
62.80,3.44,0.93,3.44,0.93,-0.92,-0.79,2.52,2.51,2.51
63.43,3.40,0.90,3.40,0.90,-0.89,-0.76,2.51,2.51,2.50
64.07,3.35,0.86,3.35,0.86,-0.85,-0.72,2.50,2.50,2.49
64.71,3.31,0.81,3.31,0.81,-0.81,-0.68,2.50,2.50,2.50
65.35,3.26,0.76,3.26,0.76,-0.77,-0.64,2.49,2.50,2.50
66.01,3.22,0.71,3.22,0.72,-0.72,-0.60,2.50,2.50,2.51
66.67,3.18,0.68,3.18,0.67,-0.67,-0.55,2.51,2.51,2.50
67.33,3.13,0.62,3.13,0.62,-0.62,-0.51,2.51,2.51,2.51
68.01,3.07,0.57,3.07,0.57,-0.57,-0.46,2.50,2.51,2.50
68.69,3.02,0.51,3.02,0.51,-0.52,-0.41,2.50,2.50,2.51
69.37,2.96,0.46,2.96,0.46,-0.46,-0.35,2.50,2.50,2.50
70.07,2.91,0.41,2.91,0.41,-0.41,-0.30,2.50,2.50,2.50
70.77,2.86,0.36,2.86,0.36,-0.36,-0.24,2.50,2.50,2.50
71.48,2.80,0.31,2.80,0.31,-0.30,-0.19,2.50,2.50,2.49
72.19,2.74,0.25,2.74,0.26,-0.25,-0.14,2.49,2.49,2.49
72.91,2.69,0.22,2.69,0.21,-0.20,-0.09,2.49,2.48,2.47
73.64,2.63,0.16,2.63,0.16,-0.16,-0.05,2.47,2.47,2.47
74.38,2.57,0.11,2.57,0.12,-0.13,-0.03,2.44,2.44,2.46
75.12,2.52,0.09,2.52,0.09,-0.11,-0.01,2.41,2.41,2.43
75.87,2.47,0.09,2.47,0.08,-0.09,-0.01,2.38,2.38,2.38
76.63,2.41,0.07,2.41,0.08,-0.08,-0.03,2.33,2.33,2.34
77.40,2.36,0.08,2.36,0.09,-0.08,-0.06,2.28,2.28,2.28
78.17,2.31,0.11,2.31,0.10,-0.09,-0.09,2.22,2.22,2.20
78.95,2.27,0.11,2.27,0.11,-0.10,-0.14,2.17,2.16,2.16
79.74,2.22,0.11,2.22,0.12,-0.12,-0.19,2.10,2.10,2.11
80.54,2.18,0.14,2.18,0.14,-0.14,-0.25,2.04,2.04,2.04
81.35,2.15,0.17,2.15,0.17,-0.17,-0.30,1.98,1.98,1.98
82.16,2.12,0.21,2.12,0.20,-0.20,-0.35,1.92,1.92,1.91
82.98,2.08,0.22,2.09,0.23,-0.23,-0.41,1.85,1.86,1.86
83.81,2.06,0.28,2.05,0.27,-0.26,-0.46,1.80,1.79,1.78
84.65,2.02,0.30,2.03,0.30,-0.30,-0.50,1.72,1.72,1.72
85.50,2.00,0.33,2.00,0.34,-0.34,-0.55,1.66,1.66,1.67
86.35,1.99,0.39,1.98,0.39,-0.39,-0.60,1.60,1.59,1.60
87.22,1.96,0.43,1.97,0.44,-0.44,-0.64,1.52,1.53,1.53
88.09,1.96,0.51,1.95,0.49,-0.49,-0.68,1.47,1.46,1.45
88.97,1.94,0.54,1.94,0.55,-0.55,-0.72,1.39,1.39,1.40
89.86,1.93,0.60,1.93,0.61,-0.61,-0.76,1.32,1.33,1.33
90.76,1.92,0.67,1.92,0.67,-0.67,-0.80,1.25,1.25,1.25
91.66,1.92,0.74,1.92,0.73,-0.73,-0.84,1.19,1.18,1.18
92.58,1.91,0.80,1.91,0.80,-0.80,-0.88,1.11,1.12,1.11
93.51,1.91,0.86,1.91,0.86,-0.86,-0.92,1.05,1.05,1.05
94.44,1.91,0.93,1.91,0.93,-0.93,-0.96,0.98,0.98,0.98
95.39,1.91,1.00,1.91,1.00,-1.00,-1.00,0.91,0.90,0.91
96.34,1.90,1.08,1.90,1.07,-1.08,-1.04,0.82,0.83,0.82
97.30,1.89,1.14,1.90,1.15,-1.15,-1.08,0.74,0.75,0.75
98.28,1.90,1.23,1.89,1.22,-1.22,-1.12,0.68,0.67,0.67
99.26,1.89,1.30,1.89,1.30,-1.30,-1.16,0.59,0.59,0.59
100.25,1.89,1.37,1.89,1.37,-1.37,-1.21,0.52,0.52,0.52
101.25,1.88,1.44,1.88,1.44,-1.44,-1.26,0.44,0.44,0.44
102.27,1.88,1.52,1.88,1.52,-1.51,-1.30,0.37,0.36,0.36
103.29,1.87,1.59,1.87,1.59,-1.59,-1.35,0.28,0.29,0.28
104.32,1.87,1.66,1.87,1.66,-1.66,-1.41,0.21,0.21,0.21
105.37,1.86,1.72,1.86,1.72,-1.73,-1.46,0.13,0.13,0.14
106.42,1.84,1.79,1.84,1.79,-1.80,-1.51,0.04,0.05,0.05
107.48,1.83,1.86,1.83,1.86,-1.86,-1.57,-0.03,-0.03,-0.03
108.56,1.82,1.94,1.82,1.93,-1.93,-1.63,-0.11,-0.11,-0.12
109.64,1.81,2.00,1.81,2.00,-2.00,-1.69,-0.19,-0.19,-0.19
110.74,1.80,2.06,1.80,2.07,-2.07,-1.75,-0.27,-0.27,-0.26
111.85,1.78,2.13,1.78,2.13,-2.13,-1.81,-0.35,-0.35,-0.35
112.97,1.76,2.20,1.76,2.19,-2.19,-1.87,-0.43,-0.44,-0.44
114.10,1.73,2.25,1.74,2.26,-2.26,-1.94,-0.53,-0.52,-0.52
115.24,1.71,2.31,1.71,2.31,-2.31,-2.01,-0.60,-0.60,-0.60
116.39,1.69,2.38,1.68,2.37,-2.37,-2.07,-0.68,-0.68,-0.69
117.55,1.65,2.42,1.65,2.42,-2.42,-2.14,-0.77,-0.76,-0.77
118.73,1.62,2.46,1.62,2.47,-2.46,-2.21,-0.84,-0.84,-0.84
119.92,1.59,2.51,1.59,2.51,-2.51,-2.28,-0.92,-0.92,-0.92
121.12,1.55,2.54,1.55,2.55,-2.55,-2.34,-1.00,-0.99,-0.99
122.33,1.51,2.59,1.51,2.58,-2.58,-2.41,-1.07,-1.07,-1.08
123.55,1.47,2.61,1.47,2.61,-2.61,-2.47,-1.14,-1.14,-1.14
124.79,1.42,2.64,1.42,2.64,-2.64,-2.53,-1.22,-1.22,-1.22
126.03,1.38,2.66,1.38,2.66,-2.67,-2.59,-1.29,-1.29,-1.28
127.29,1.33,2.69,1.33,2.69,-2.69,-2.64,-1.36,-1.36,-1.36
128.57,1.28,2.72,1.28,2.71,-2.71,-2.69,-1.43,-1.43,-1.44
129.85,1.23,2.73,1.23,2.73,-2.73,-2.74,-1.50,-1.50,-1.50
131.15,1.17,2.74,1.17,2.75,-2.74,-2.78,-1.57,-1.57,-1.57
132.46,1.12,2.76,1.11,2.75,-2.75,-2.81,-1.63,-1.63,-1.64
133.79,1.05,2.75,1.05,2.75,-2.75,-2.84,-1.70,-1.70,-1.70
135.12,0.98,2.75,0.98,2.74,-2.74,-2.85,-1.76,-1.76,-1.77
136.48,0.91,2.73,0.91,2.73,-2.73,-2.86,-1.82,-1.82,-1.82
137.84,0.83,2.70,0.83,2.71,-2.71,-2.87,-1.88,-1.88,-1.87
139.22,0.76,2.69,0.76,2.69,-2.69,-2.86,-1.93,-1.93,-1.93
140.61,0.68,2.67,0.68,2.66,-2.66,-2.84,-1.98,-1.98,-1.99
142.02,0.60,2.62,0.60,2.63,-2.63,-2.82,-2.03,-2.03,-2.02
143.44,0.52,2.59,0.52,2.59,-2.59,-2.79,-2.07,-2.07,-2.07
144.87,0.44,2.56,0.44,2.56,-2.56,-2.75,-2.12,-2.12,-2.12
146.32,0.36,2.53,0.36,2.52,-2.52,-2.71,-2.16,-2.16,-2.17
147.78,0.27,2.47,0.28,2.48,-2.48,-2.66,-2.21,-2.21,-2.20
149.26,0.20,2.44,0.19,2.44,-2.44,-2.60,-2.24,-2.25,-2.24
150.75,0.11,2.41,0.11,2.41,-2.40,-2.53,-2.29,-2.29,-2.30
152.26,0.03,2.36,0.03,2.37,-2.36,-2.47,-2.33,-2.33,-2.33
153.78,-0.05,2.33,-0.05,2.32,-2.32,-2.39,-2.37,-2.37,-2.38
155.32,-0.14,2.27,-0.14,2.27,-2.28,-2.32,-2.42,-2.42,-2.41
156.88,-0.23,2.23,-0.23,2.23,-2.23,-2.24,-2.46,-2.46,-2.46
158.44,-0.32,2.18,-0.32,2.18,-2.19,-2.16,-2.51,-2.50,-2.50
160.03,-0.40,2.15,-0.41,2.14,-2.14,-2.08,-2.54,-2.54,-2.55
161.63,-0.50,2.09,-0.50,2.09,-2.09,-1.99,-2.59,-2.58,-2.59
163.24,-0.59,2.04,-0.59,2.04,-2.03,-1.91,-2.62,-2.62,-2.63
164.88,-0.69,1.98,-0.69,1.98,-1.98,-1.83,-2.67,-2.67,-2.67
166.53,-0.79,1.91,-0.79,1.92,-1.92,-1.74,-2.71,-2.71,-2.70
168.19,-0.90,1.86,-0.90,1.86,-1.86,-1.65,-2.76,-2.76,-2.76
169.87,-1.01,1.79,-1.01,1.79,-1.79,-1.57,-2.81,-2.80,-2.80
171.57,-1.11,1.74,-1.11,1.73,-1.73,-1.48,-2.84,-2.84,-2.85
173.29,-1.23,1.65,-1.23,1.66,-1.66,-1.40,-2.89,-2.89,-2.88
175.02,-1.34,1.59,-1.34,1.59,-1.59,-1.32,-2.93,-2.94,-2.93
176.77,-1.47,1.52,-1.47,1.52,-1.52,-1.23,-2.99,-2.99,-2.99
178.54,-1.59,1.45,-1.59,1.45,-1.45,-1.15,-3.04,-3.04,-3.04
180.32,-1.71,1.38,-1.72,1.37,-1.37,-1.07,-3.08,-3.09,-3.09
182.13,-1.85,1.28,-1.85,1.29,-1.29,-0.98,-3.14,-3.14,-3.13
183.95,-1.99,1.20,-1.98,1.20,-1.21,-0.90,-3.20,-3.19,-3.19
185.79,-2.12,1.12,-2.12,1.12,-1.12,-0.82,-3.24,-3.24,-3.24
187.65,-2.26,1.04,-2.26,1.03,-1.02,-0.73,-3.28,-3.28,-3.29
189.52,-2.41,0.93,-2.40,0.93,-0.92,-0.65,-3.33,-3.33,-3.34
191.42,-2.55,0.82,-2.56,0.82,-0.82,-0.57,-3.37,-3.37,-3.37
193.33,-2.71,0.70,-2.71,0.70,-0.71,-0.48,-3.42,-3.42,-3.41
195.27,-2.87,0.58,-2.87,0.59,-0.59,-0.40,-3.46,-3.46,-3.45
197.22,-3.03,0.47,-3.03,0.47,-0.47,-0.31,-3.50,-3.50,-3.50
199.19,-3.19,0.37,-3.19,0.36,-0.35,-0.22,-3.54,-3.54,-3.56
201.18,-3.35,0.23,-3.36,0.23,-0.22,-0.13,-3.57,-3.58,-3.58
203.19,-3.53,0.09,-3.52,0.09,-0.09,-0.04,-3.62,-3.62,-3.62
205.23,-3.69,-0.04,-3.69,-0.05,0.04,0.05,-3.65,-3.65,-3.65
207.28,-3.86,-0.19,-3.86,-0.18,0.17,0.15,-3.69,-3.68,-3.67
209.35,-4.02,-0.31,-4.02,-0.31,0.31,0.25,-3.71,-3.71,-3.71
211.44,-4.18,-0.43,-4.18,-0.44,0.44,0.35,-3.74,-3.74,-3.75
213.56,-4.35,-0.57,-4.35,-0.57,0.57,0.46,-3.78,-3.77,-3.78
215.69,-4.50,-0.71,-4.50,-0.71,0.70,0.57,-3.80,-3.80,-3.79
217.85,-4.66,-0.85,-4.66,-0.83,0.83,0.68,-3.83,-3.83,-3.81
220.03,-4.80,-0.95,-4.80,-0.95,0.95,0.79,-3.85,-3.85,-3.85
222.23,-4.94,-1.06,-4.94,-1.07,1.08,0.91,-3.86,-3.87,-3.88
224.45,-5.07,-1.19,-5.07,-1.19,1.19,1.03,-3.88,-3.88,-3.88
226.70,-5.21,-1.31,-5.21,-1.31,1.31,1.16,-3.90,-3.90,-3.90
228.96,-5.33,-1.42,-5.33,-1.42,1.42,1.29,-3.91,-3.91,-3.91
231.25,-5.45,-1.53,-5.45,-1.53,1.52,1.42,-3.93,-3.93,-3.92
233.57,-5.56,-1.64,-5.56,-1.63,1.63,1.55,-3.93,-3.93,-3.92
235.90,-5.66,-1.73,-5.66,-1.73,1.73,1.68,-3.93,-3.93,-3.93
238.26,-5.75,-1.81,-5.75,-1.82,1.82,1.81,-3.93,-3.93,-3.94
240.64,-5.85,-1.92,-5.85,-1.91,1.92,1.94,-3.93,-3.93,-3.93
243.05,-5.93,-2.00,-5.93,-2.01,2.01,2.06,-3.92,-3.93,-3.93
245.48,-6.02,-2.10,-6.02,-2.09,2.10,2.17,-3.92,-3.92,-3.92
247.93,-6.10,-2.18,-6.10,-2.18,2.19,2.28,-3.91,-3.91,-3.92
250.41,-6.17,-2.25,-6.18,-2.26,2.28,2.37,-3.89,-3.90,-3.92
252.92,-6.25,-2.35,-6.25,-2.35,2.36,2.45,-3.89,-3.89,-3.90
255.45,-6.33,-2.44,-6.33,-2.43,2.44,2.51,-3.89,-3.89,-3.89
258.00,-6.39,-2.51,-6.39,-2.51,2.50,2.56,-3.89,-3.89,-3.88
260.58,-6.43,-2.56,-6.43,-2.56,2.55,2.58,-3.88,-3.88,-3.87
263.19,-6.46,-2.59,-6.46,-2.59,2.58,2.59,-3.88,-3.88,-3.87
265.82,-6.45,-2.59,-6.45,-2.60,2.58,2.57,-3.87,-3.87,-3.86
268.48,-6.42,-2.58,-6.42,-2.58,2.56,2.53,-3.86,-3.86,-3.84
271.16,-6.35,-2.53,-6.35,-2.53,2.51,2.48,-3.84,-3.85,-3.82
273.87,-6.26,-2.45,-6.26,-2.45,2.43,2.41,-3.83,-3.83,-3.81
276.61,-6.14,-2.34,-6.14,-2.34,2.32,2.32,-3.82,-3.81,-3.80
279.38,-5.99,-2.20,-5.99,-2.21,2.20,2.22,-3.79,-3.79,-3.79
282.17,-5.84,-2.06,-5.84,-2.06,2.06,2.11,-3.78,-3.77,-3.78
284.99,-5.67,-1.91,-5.67,-1.91,1.92,1.99,-3.75,-3.76,-3.76
287.84,-5.51,-1.75,-5.51,-1.76,1.76,1.87,-3.75,-3.74,-3.76
290.72,-5.34,-1.61,-5.34,-1.61,1.62,1.74,-3.72,-3.73,-3.73
293.63,-5.18,-1.46,-5.18,-1.46,1.47,1.61,-3.71,-3.71,-3.72
296.57,-5.03,-1.33,-5.03,-1.33,1.34,1.49,-3.69,-3.69,-3.70
299.53,-4.89,-1.20,-4.89,-1.21,1.22,1.36,-3.67,-3.67,-3.68
302.53,-4.76,-1.09,-4.76,-1.10,1.11,1.23,-3.65,-3.65,-3.67
305.55,-4.63,-1.01,-4.63,-1.01,1.01,1.11,-3.62,-3.62,-3.62
308.61,-4.51,-0.92,-4.51,-0.92,0.92,0.99,-3.59,-3.59,-3.59
311.69,-4.39,-0.84,-4.39,-0.84,0.83,0.88,-3.56,-3.56,-3.55
314.81,-4.27,-0.75,-4.27,-0.76,0.75,0.77,-3.52,-3.52,-3.52
317.96,-4.17,-0.68,-4.16,-0.68,0.67,0.66,-3.50,-3.49,-3.49
321.14,-4.05,-0.59,-4.05,-0.60,0.60,0.56,-3.45,-3.46,-3.46
324.35,-3.95,-0.51,-3.95,-0.52,0.52,0.46,-3.43,-3.43,-3.44
327.59,-3.85,-0.45,-3.85,-0.45,0.45,0.37,-3.40,-3.40,-3.40
330.87,-3.75,-0.38,-3.75,-0.38,0.37,0.28,-3.38,-3.37,-3.37
334.18,-3.65,-0.30,-3.65,-0.30,0.30,0.20,-3.35,-3.35,-3.35
337.52,-3.55,-0.22,-3.55,-0.23,0.23,0.12,-3.32,-3.32,-3.33
340.90,-3.46,-0.16,-3.46,-0.16,0.17,0.04,-3.29,-3.29,-3.30
344.30,-3.37,-0.09,-3.37,-0.10,0.10,-0.03,-3.27,-3.27,-3.28
347.75,-3.29,-0.04,-3.28,-0.03,0.03,-0.10,-3.26,-3.25,-3.25
351.23,-3.19,0.04,-3.20,0.03,-0.04,-0.16,-3.23,-3.24,-3.23
354.74,-3.11,0.11,-3.11,0.11,-0.11,-0.23,-3.22,-3.22,-3.22
358.28,-3.02,0.18,-3.02,0.18,-0.18,-0.28,-3.20,-3.20,-3.20
361.87,-2.92,0.26,-2.92,0.25,-0.25,-0.34,-3.17,-3.18,-3.18
365.49,-2.83,0.32,-2.83,0.32,-0.33,-0.39,-3.16,-3.16,-3.15
369.14,-2.74,0.40,-2.74,0.40,-0.40,-0.44,-3.14,-3.14,-3.14
372.83,-2.65,0.48,-2.65,0.47,-0.47,-0.49,-3.12,-3.12,-3.13
376.56,-2.56,0.55,-2.56,0.54,-0.53,-0.54,-3.09,-3.10,-3.11
380.33,-2.48,0.60,-2.48,0.60,-0.60,-0.58,-3.08,-3.08,-3.08
384.13,-2.40,0.66,-2.40,0.66,-0.66,-0.62,-3.06,-3.06,-3.06
387.97,-2.33,0.71,-2.33,0.71,-0.71,-0.66,-3.04,-3.04,-3.04
391.85,-2.25,0.77,-2.25,0.76,-0.76,-0.70,-3.01,-3.02,-3.02
395.77,-2.18,0.81,-2.18,0.81,-0.81,-0.74,-2.99,-2.99,-2.99
399.73,-2.11,0.86,-2.11,0.86,-0.86,-0.77,-2.97,-2.97,-2.97
403.72,-2.05,0.91,-2.05,0.90,-0.90,-0.80,-2.95,-2.95,-2.96
407.76,-2.00,0.94,-1.99,0.94,-0.94,-0.83,-2.94,-2.93,-2.94
411.84,-1.94,0.97,-1.94,0.97,-0.97,-0.86,-2.91,-2.91,-2.91
415.96,-1.88,1.01,-1.88,1.00,-1.01,-0.89,-2.89,-2.89,-2.89
420.12,-1.83,1.04,-1.83,1.03,-1.03,-0.91,-2.86,-2.86,-2.87
424.32,-1.78,1.06,-1.78,1.06,-1.06,-0.94,-2.84,-2.84,-2.84
428.56,-1.73,1.09,-1.73,1.09,-1.08,-0.96,-2.81,-2.82,-2.82
432.85,-1.69,1.11,-1.69,1.11,-1.11,-0.98,-2.80,-2.79,-2.80
437.18,-1.64,1.13,-1.64,1.12,-1.13,-1.00,-2.77,-2.77,-2.77
441.55,-1.60,1.14,-1.60,1.14,-1.14,-1.02,-2.74,-2.74,-2.74
445.96,-1.57,1.15,-1.57,1.15,-1.15,-1.04,-2.72,-2.72,-2.72
450.42,-1.53,1.18,-1.53,1.16,-1.16,-1.05,-2.69,-2.69,-2.71
454.93,-1.50,1.17,-1.50,1.17,-1.17,-1.07,-2.67,-2.67,-2.67
459.48,-1.47,1.18,-1.47,1.18,-1.17,-1.08,-2.64,-2.64,-2.65
464.07,-1.44,1.18,-1.44,1.17,-1.17,-1.09,-2.61,-2.61,-2.62
468.71,-1.41,1.17,-1.41,1.17,-1.17,-1.10,-2.58,-2.58,-2.58
473.40,-1.39,1.17,-1.39,1.17,-1.17,-1.11,-2.56,-2.56,-2.56
478.13,-1.36,1.17,-1.36,1.16,-1.17,-1.12,-2.53,-2.53,-2.53
482.91,-1.34,1.16,-1.33,1.16,-1.17,-1.13,-2.51,-2.50,-2.50
487.74,-1.30,1.17,-1.31,1.16,-1.16,-1.14,-2.46,-2.47,-2.47
492.62,-1.28,1.16,-1.28,1.16,-1.16,-1.14,-2.44,-2.44,-2.44
497.55,-1.25,1.17,-1.25,1.16,-1.16,-1.15,-2.41,-2.41,-2.42
502.52,-1.23,1.15,-1.23,1.15,-1.15,-1.15,-2.38,-2.38,-2.38
507.55,-1.20,1.16,-1.20,1.15,-1.15,-1.16,-2.35,-2.35,-2.36
512.62,-1.18,1.15,-1.18,1.15,-1.15,-1.16,-2.33,-2.33,-2.33
517.75,-1.15,1.15,-1.15,1.15,-1.15,-1.16,-2.30,-2.30,-2.30
522.93,-1.13,1.14,-1.13,1.14,-1.14,-1.16,-2.27,-2.27,-2.27
528.16,-1.10,1.15,-1.10,1.14,-1.14,-1.16,-2.24,-2.24,-2.25
533.44,-1.07,1.15,-1.07,1.14,-1.14,-1.16,-2.21,-2.21,-2.22
538.77,-1.05,1.14,-1.05,1.14,-1.14,-1.16,-2.19,-2.19,-2.19
544.16,-1.02,1.14,-1.02,1.14,-1.14,-1.16,-2.16,-2.16,-2.16
549.60,-1.00,1.13,-1.00,1.13,-1.14,-1.16,-2.14,-2.13,-2.13
555.10,-0.97,1.15,-0.97,1.13,-1.14,-1.16,-2.11,-2.11,-2.12
560.65,-0.95,1.13,-0.95,1.13,-1.13,-1.16,-2.08,-2.08,-2.08
566.25,-0.92,1.13,-0.92,1.13,-1.13,-1.15,-2.05,-2.05,-2.05
571.92,-0.89,1.14,-0.89,1.13,-1.13,-1.15,-2.02,-2.02,-2.03
577.64,-0.87,1.13,-0.87,1.13,-1.13,-1.15,-2.00,-1.99,-2.00
583.41,-0.84,1.13,-0.84,1.13,-1.12,-1.14,-1.96,-1.96,-1.97
589.25,-0.81,1.12,-0.81,1.12,-1.12,-1.14,-1.93,-1.93,-1.93
595.14,-0.78,1.12,-0.78,1.11,-1.11,-1.14,-1.89,-1.90,-1.90
601.09,-0.76,1.11,-0.76,1.11,-1.11,-1.13,-1.87,-1.86,-1.87
607.10,-0.73,1.10,-0.73,1.10,-1.10,-1.13,-1.83,-1.83,-1.83
613.17,-0.70,1.09,-0.70,1.09,-1.09,-1.12,-1.79,-1.79,-1.79
619.30,-0.67,1.09,-0.67,1.08,-1.09,-1.12,-1.76,-1.76,-1.76
625.50,-0.64,1.08,-0.64,1.08,-1.08,-1.11,-1.72,-1.72,-1.72
631.75,-0.62,1.08,-0.62,1.07,-1.07,-1.11,-1.69,-1.69,-1.70
638.07,-0.59,1.07,-0.59,1.07,-1.07,-1.11,-1.66,-1.66,-1.66
644.45,-0.57,1.07,-0.57,1.06,-1.06,-1.10,-1.63,-1.63,-1.64
650.89,-0.54,1.06,-0.54,1.06,-1.06,-1.10,-1.60,-1.60,-1.60
657.40,-0.52,1.06,-0.52,1.05,-1.06,-1.09,-1.58,-1.58,-1.58
663.98,-0.50,1.05,-0.50,1.05,-1.05,-1.09,-1.55,-1.55,-1.55
670.62,-0.47,1.06,-0.47,1.05,-1.05,-1.08,-1.52,-1.53,-1.53
677.32,-0.45,1.06,-0.45,1.05,-1.05,-1.08,-1.50,-1.51,-1.51
